# Data From feldspar_std_9_xrf.001
# VERSION: 3.1
# ELEMENTS: 16
# DATE: Aug 11, 2001 16:25:38.435
# CHANNELS: 2048
# ROIS: 3 3 3 3 3 3 3 3 3 3 3 0 3 3 3 3
#----------------------------------------------------------
#    energy       counts
    0.0314320      0.00000
    0.0461207      0.00000
    0.0608095      0.00000
    0.0754982      0.00000
    0.0901870      0.00000
     0.104876      0.00000
     0.119564      0.00000
     0.134253      0.00000
     0.148942      0.00000
     0.163631      0.00000
     0.178319      0.00000
     0.193008      0.00000
     0.207697      0.00000
     0.222386      0.00000
     0.237074      0.00000
     0.251763      0.00000
     0.266452      0.00000
     0.281141      0.00000
     0.295829      0.00000
     0.310518      0.00000
     0.325207      0.00000
     0.339896      0.00000
     0.354584      0.00000
     0.369273      0.00000
     0.383962      0.00000
     0.398651      0.00000
     0.413339      0.00000
     0.428028      0.00000
     0.442717      0.00000
     0.457406      0.00000
     0.472094      0.00000
     0.486783      0.00000
     0.501472      0.00000
     0.516161      0.00000
     0.530849      0.00000
     0.545538      0.00000
     0.560227      0.00000
     0.574916      0.00000
     0.589604      0.00000
     0.604293      0.00000
     0.618982      0.00000
     0.633671      0.00000
     0.648359      0.00000
     0.663048      0.00000
     0.677737      0.00000
     0.692426      0.00000
     0.707114      0.00000
     0.721803      0.00000
     0.736492      0.00000
     0.751181      0.00000
     0.765869      0.00000
     0.780558      0.00000
     0.795247      0.00000
     0.809936      0.00000
     0.824624      0.00000
     0.839313      0.00000
     0.854002      0.00000
     0.868691      0.00000
     0.883379      0.00000
     0.898068      0.00000
     0.912757      0.00000
     0.927446      0.00000
     0.942134      0.00000
     0.956823      0.00000
     0.971512      0.00000
     0.986201      0.00000
      1.00089      0.00000
      1.01558      0.00000
      1.03027      0.00000
      1.04496      0.00000
      1.05964      1.00000
      1.07433      0.00000
      1.08902      2.00000
      1.10371      0.00000
      1.11840      0.00000
      1.13309      0.00000
      1.14778      0.00000
      1.16247      0.00000
      1.17715      1.00000
      1.19184      0.00000
      1.20653      2.00000
      1.22122      1.00000
      1.23591      1.00000
      1.25060      1.00000
      1.26529      0.00000
      1.27998      0.00000
      1.29466      1.00000
      1.30935      0.00000
      1.32404      0.00000
      1.33873      1.00000
      1.35342      2.00000
      1.36811      2.00000
      1.38280      1.00000
      1.39749      3.00000
      1.41217      3.00000
      1.42686      6.00000
      1.44155      1.00000
      1.45624      2.00000
      1.47093      2.00000
      1.48562      2.00000
      1.50031      2.00000
      1.51500      5.00000
      1.52968      20.0000
      1.54437      140.000
      1.55906      185.000
      1.57375      217.000
      1.58844      343.000
      1.60313      533.000
      1.61782      742.000
      1.63251      733.000
      1.64719      759.000
      1.66188      751.000
      1.67657      716.000
      1.69126      744.000
      1.70595      798.000
      1.72064      737.000
      1.73533      735.000
      1.75002      757.000
      1.76470      791.000
      1.77939      775.000
      1.79408      724.000
      1.80877      776.000
      1.82346      797.000
      1.83815      827.000
      1.85284      769.000
      1.86753      758.000
      1.88221      803.000
      1.89690      812.000
      1.91159      766.000
      1.92628      823.000
      1.94097      801.000
      1.95566      776.000
      1.97035      791.000
      1.98504      837.000
      1.99972      818.000
      2.01441      757.000
      2.02910      787.000
      2.04379      845.000
      2.05848      808.000
      2.07317      817.000
      2.08786      872.000
      2.10255      843.000
      2.11723      823.000
      2.13192      870.000
      2.14661      884.000
      2.16130      904.000
      2.17599      997.000
      2.19068      1023.00
      2.20537      1031.00
      2.22006      1055.00
      2.23474      1046.00
      2.24943      1047.00
      2.26412      1079.00
      2.27881      1092.00
      2.29350      1071.00
      2.30819      1115.00
      2.32288      1114.00
      2.33757      1125.00
      2.35225      1161.00
      2.36694      1133.00
      2.38163      1173.00
      2.39632      1164.00
      2.41101      1205.00
      2.42570      1252.00
      2.44039      1267.00
      2.45508      1300.00
      2.46976      1257.00
      2.48445      1302.00
      2.49914      1315.00
      2.51383      1378.00
      2.52852      1393.00
      2.54321      1377.00
      2.55790      1406.00
      2.57259      1422.00
      2.58727      1478.00
      2.60196      1484.00
      2.61665      1477.00
      2.63134      1451.00
      2.64603      1563.00
      2.66072      1475.00
      2.67541      1504.00
      2.69010      1494.00
      2.70478      1597.00
      2.71947      1515.00
      2.73416      1622.00
      2.74885      1661.00
      2.76354      1725.00
      2.77823      1725.00
      2.79292      1736.00
      2.80761      1779.00
      2.82229      1906.00
      2.83698      1967.00
      2.85167      2092.00
      2.86636      2078.00
      2.88105      2252.00
      2.89574      2260.00
      2.91043      2240.00
      2.92512      2327.00
      2.93980      2409.00
      2.95449      2447.00
      2.96918      2544.00
      2.98387      2540.00
      2.99856      2616.00
      3.01325      2677.00
      3.02794      2842.00
      3.04263      3284.00
      3.05731      3283.00
      3.07200      3741.00
      3.08669      4183.00
      3.10138      4487.00
      3.11607      4743.00
      3.13076      5007.00
      3.14545      5618.00
      3.16014      5968.00
      3.17482      6445.00
      3.18951      6888.00
      3.20420      7649.00
      3.21889      8236.00
      3.23358      8849.00
      3.24827      9301.00
      3.26296      9841.00
      3.27765      10072.0
      3.29233      10633.0
      3.30702      11061.0
      3.32171      11027.0
      3.33640      11182.0
      3.35109      11137.0
      3.36578      10813.0
      3.38047      10777.0
      3.39516      10428.0
      3.40984      10073.0
      3.42453      9913.00
      3.43922      9842.00
      3.45391      9476.00
      3.46860      9782.00
      3.48329      9817.00
      3.49798      10223.0
      3.51267      10527.0
      3.52735      11157.0
      3.54204      11906.0
      3.55673      12444.0
      3.57142      13161.0
      3.58611      13972.0
      3.60080      14689.0
      3.61549      15701.0
      3.63018      16167.0
      3.64486      16891.0
      3.65955      17689.0
      3.67424      17377.0
      3.68893      17835.0
      3.70362      17148.0
      3.71831      17119.0
      3.73300      16479.0
      3.74769      15944.0
      3.76237      15301.0
      3.77706      14166.0
      3.79175      13302.0
      3.80644      12229.0
      3.82113      11268.0
      3.83582      10467.0
      3.85051      9704.00
      3.86520      9083.00
      3.87988      8751.00
      3.89457      8309.00
      3.90926      8057.00
      3.92395      7977.00
      3.93864      7902.00
      3.95333      8105.00
      3.96802      7846.00
      3.98271      7850.00
      3.99739      7795.00
      4.01208      7858.00
      4.02677      7805.00
      4.04146      7477.00
      4.05615      7458.00
      4.07084      7063.00
      4.08553      6874.00
      4.10022      6586.00
      4.11490      6086.00
      4.12959      5863.00
      4.14428      5772.00
      4.15897      5485.00
      4.17366      5372.00
      4.18835      5333.00
      4.20304      5283.00
      4.21773      5372.00
      4.23241      5612.00
      4.24710      5691.00
      4.26179      6192.00
      4.27648      6608.00
      4.29117      7441.00
      4.30586      7941.00
      4.32055      8787.00
      4.33524      9934.00
      4.34992      10822.0
      4.36461      11505.0
      4.37930      12942.0
      4.39399      13842.0
      4.40868      15133.0
      4.42337      16332.0
      4.43806      17091.0
      4.45275      17380.0
      4.46743      17801.0
      4.48212      18079.0
      4.49681      17530.0
      4.51150      17377.0
      4.52619      17018.0
      4.54088      16387.0
      4.55557      15572.0
      4.57026      14907.0
      4.58494      14229.0
      4.59963      13557.0
      4.61432      12920.0
      4.62901      12567.0
      4.64370      12321.0
      4.65839      12290.0
      4.67308      12471.0
      4.68777      13259.0
      4.70245      13827.0
      4.71714      14657.0
      4.73183      15530.0
      4.74652      16418.0
      4.76121      17539.0
      4.77590      18825.0
      4.79059      19826.0
      4.80528      20625.0
      4.81996      21368.0
      4.83465      22162.0
      4.84934      22209.0
      4.86403      22151.0
      4.87872      22188.0
      4.89341      21598.0
      4.90810      20967.0
      4.92279      20242.0
      4.93747      19215.0
      4.95216      18234.0
      4.96685      17299.0
      4.98154      16380.0
      4.99623      15458.0
      5.01092      14683.0
      5.02561      14006.0
      5.04030      13575.0
      5.05498      13024.0
      5.06967      12756.0
      5.08436      12532.0
      5.09905      12653.0
      5.11374      12243.0
      5.12843      12183.0
      5.14312      11962.0
      5.15781      11979.0
      5.17249      11377.0
      5.18718      11148.0
      5.20187      10980.0
      5.21656      10722.0
      5.23125      10084.0
      5.24594      9864.00
      5.26063      9189.00
      5.27532      8976.00
      5.29000      8583.00
      5.30469      7973.00
      5.31938      7809.00
      5.33407      7496.00
      5.34876      7298.00
      5.36345      7271.00
      5.37814      7217.00
      5.39283      7345.00
      5.40751      7300.00
      5.42220      7615.00
      5.43689      7945.00
      5.45158      8133.00
      5.46627      8519.00
      5.48096      8623.00
      5.49565      8938.00
      5.51034      9183.00
      5.52502      9469.00
      5.53971      9524.00
      5.55440      9512.00
      5.56909      9453.00
      5.58378      9416.00
      5.59847      9427.00
      5.61316      9076.00
      5.62785      8830.00
      5.64253      8677.00
      5.65722      8661.00
      5.67191      8456.00
      5.68660      8398.00
      5.70129      8439.00
      5.71598      8510.00
      5.73067      8527.00
      5.74536      8573.00
      5.76004      8508.00
      5.77473      8777.00
      5.78942      8949.00
      5.80411      8739.00
      5.81880      8953.00
      5.83349      9007.00
      5.84818      9131.00
      5.86287      8967.00
      5.87755      8823.00
      5.89224      8874.00
      5.90693      8734.00
      5.92162      8882.00
      5.93631      8810.00
      5.95100      9064.00
      5.96569      9231.00
      5.98038      9382.00
      5.99506      9878.00
      6.00975      10245.0
      6.02444      11329.0
      6.03913      12536.0
      6.05382      14102.0
      6.06851      15808.0
      6.08320      18364.0
      6.09789      21980.0
      6.11257      25247.0
      6.12726      30086.0
      6.14195      35991.0
      6.15664      44050.0
      6.17133      52394.0
      6.18602      63271.0
      6.20071      78278.0
      6.21540      92282.0
      6.23008      109516.
      6.24477      129833.
      6.25946      150790.
      6.27415      178370.
      6.28884      204620.
      6.30353      231082.
      6.31822      255223.
      6.33291      280875.
      6.34759      302878.
      6.36228      324937.
      6.37697      339646.
      6.39166      351545.
      6.40635      355767.
      6.42104      355299.
      6.43573      349572.
      6.45042      340748.
      6.46510      319766.
      6.47979      299492.
      6.49448      274537.
      6.50917      250064.
      6.52386      226322.
      6.53855      207725.
      6.55324      181749.
      6.56793      159118.
      6.58261      138552.
      6.59730      118367.
      6.61199      103439.
      6.62668      89603.0
      6.64137      80527.0
      6.65606      69865.0
      6.67075      61255.0
      6.68544      54531.0
      6.70012      49006.0
      6.71481      43761.0
      6.72950      40824.0
      6.74419      38182.0
      6.75888      34774.0
      6.77357      33056.0
      6.78826      30588.0
      6.80295      29701.0
      6.81763      28929.0
      6.83232      29024.0
      6.84701      29241.0
      6.86170      30199.0
      6.87639      31760.0
      6.89108      34210.0
      6.90577      37550.0
      6.92046      40526.0
      6.93514      44008.0
      6.94983      47563.0
      6.96452      51774.0
      6.97921      56086.0
      6.99390      59660.0
      7.00859      63607.0
      7.02328      66568.0
      7.03797      68351.0
      7.05265      69808.0
      7.06734      70164.0
      7.08203      69376.0
      7.09672      67136.0
      7.11141      63685.0
      7.12610      60506.0
      7.14079      56964.0
      7.15548      52819.0
      7.17016      48332.0
      7.18485      43071.0
      7.19954      38619.0
      7.21423      34156.0
      7.22892      29162.0
      7.24361      25845.0
      7.25830      22863.0
      7.27299      20210.0
      7.28767      17993.0
      7.30236      15781.0
      7.31705      13883.0
      7.33174      12564.0
      7.34643      11386.0
      7.36112      10464.0
      7.37581      9554.00
      7.39050      8659.00
      7.40518      8024.00
      7.41987      7301.00
      7.43456      6724.00
      7.44925      6215.00
      7.46394      5766.00
      7.47863      5326.00
      7.49332      4752.00
      7.50801      4526.00
      7.52269      3911.00
      7.53738      3747.00
      7.55207      3477.00
      7.56676      3220.00
      7.58145      3001.00
      7.59614      2737.00
      7.61083      2532.00
      7.62552      2294.00
      7.64020      2307.00
      7.65489      2127.00
      7.66958      2056.00
      7.68427      2024.00
      7.69896      2017.00
      7.71365      1839.00
      7.72834      1911.00
      7.74303      1904.00
      7.75771      1869.00
      7.77240      1902.00
      7.78709      1944.00
      7.80178      1954.00
      7.81647      2005.00
      7.83116      2105.00
      7.84585      2132.00
      7.86054      2160.00
      7.87522      2311.00
      7.88991      2305.00
      7.90460      2416.00
      7.91929      2641.00
      7.93398      2709.00
      7.94867      2777.00
      7.96336      2861.00
      7.97805      3006.00
      7.99273      3195.00
      8.00742      3525.00
      8.02211      3563.00
      8.03680      3833.00
      8.05149      3984.00
      8.06618      4296.00
      8.08087      4664.00
      8.09556      4939.00
      8.11024      5354.00
      8.12493      5754.00
      8.13962      6144.00
      8.15431      6820.00
      8.16900      7480.00
      8.18369      8197.00
      8.19838      9313.00
      8.21307      10458.0
      8.22775      11098.0
      8.24244      12506.0
      8.25713      14272.0
      8.27182      16172.0
      8.28651      18817.0
      8.30120      21802.0
      8.31589      25084.0
      8.33058      28180.0
      8.34526      32053.0
      8.35995      37259.0
      8.37464      43004.0
      8.38933      49576.0
      8.40402      60116.0
      8.41871      68359.0
      8.43340      77834.0
      8.44809      91484.0
      8.46277      103915.
      8.47746      116330.
      8.49215      130165.
      8.50684      141955.
      8.52153      154320.
      8.53622      163477.
      8.55091      173351.
      8.56560      179891.
      8.58028      185556.
      8.59497      188248.
      8.60966      187072.
      8.62435      182475.
      8.63904      177635.
      8.65373      169541.
      8.66842      159028.
      8.68311      147839.
      8.69779      135090.
      8.71248      120334.
      8.72717      107525.
      8.74186      95473.0
      8.75655      82423.0
      8.77124      70692.0
      8.78593      60020.0
      8.80062      51178.0
      8.81530      42793.0
      8.82999      35404.0
      8.84468      27055.0
      8.85937      22027.0
      8.87406      18295.0
      8.88875      15343.0
      8.90344      12715.0
      8.91813      11148.0
      8.93281      9605.00
      8.94750      8389.00
      8.96219      7396.00
      8.97688      6488.00
      8.99157      5935.00
      9.00626      5310.00
      9.02095      4863.00
      9.03564      4419.00
      9.05032      4017.00
      9.06501      3806.00
      9.07970      3439.00
      9.09439      2995.00
      9.10908      2742.00
      9.12377      2466.00
      9.13846      2142.00
      9.15315      2021.00
      9.16783      1725.00
      9.18252      1600.00
      9.19721      1373.00
      9.21190      1181.00
      9.22659      1114.00
      9.24128      1017.00
      9.25597      904.000
      9.27066      772.000
      9.28534      737.000
      9.30003      658.000
      9.31472      593.000
      9.32941      562.000
      9.34410      510.000
      9.35879      508.000
      9.37348      455.000
      9.38817      451.000
      9.40285      448.000
      9.41754      432.000
      9.43223      410.000
      9.44692      405.000
      9.46161      406.000
      9.47630      385.000
      9.49099      373.000
      9.50568      377.000
      9.52036      333.000
      9.53505      339.000
      9.54974      327.000
      9.56443      298.000
      9.57912      301.000
      9.59381      307.000
      9.60850      263.000
      9.62319      242.000
      9.63787      241.000
      9.65256      223.000
      9.66725      191.000
      9.68194      210.000
      9.69663      198.000
      9.71132      192.000
      9.72601      167.000
      9.74070      169.000
      9.75538      166.000
      9.77007      145.000
      9.78476      176.000
      9.79945      148.000
      9.81414      152.000
      9.82883      152.000
      9.84352      146.000
      9.85821      145.000
      9.87289      140.000
      9.88758      138.000
      9.90227      141.000
      9.91696      131.000
      9.93165      145.000
      9.94634      144.000
      9.96103      154.000
      9.97572      140.000
      9.99040      139.000
      10.0051      156.000
      10.0198      167.000
      10.0345      162.000
      10.0492      147.000
      10.0638      161.000
      10.0785      150.000
      10.0932      156.000
      10.1079      178.000
      10.1226      138.000
      10.1373      140.000
      10.1520      133.000
      10.1667      137.000
      10.1814      131.000
      10.1960      160.000
      10.2107      160.000
      10.2254      141.000
      10.2401      132.000
      10.2548      144.000
      10.2695      134.000
      10.2842      143.000
      10.2989      158.000
      10.3136      154.000
      10.3282      145.000
      10.3429      129.000
      10.3576      131.000
      10.3723      160.000
      10.3870      173.000
      10.4017      154.000
      10.4164      148.000
      10.4311      140.000
      10.4458      154.000
      10.4604      165.000
      10.4751      149.000
      10.4898      156.000
      10.5045      153.000
      10.5192      156.000
      10.5339      171.000
      10.5486      152.000
      10.5633      149.000
      10.5780      163.000
      10.5926      174.000
      10.6073      173.000
      10.6220      179.000
      10.6367      172.000
      10.6514      189.000
      10.6661      181.000
      10.6808      201.000
      10.6955      198.000
      10.7102      221.000
      10.7248      239.000
      10.7395      205.000
      10.7542      208.000
      10.7689      211.000
      10.7836      202.000
      10.7983      224.000
      10.8130      189.000
      10.8277      200.000
      10.8424      218.000
      10.8570      218.000
      10.8717      221.000
      10.8864      225.000
      10.9011      198.000
      10.9158      192.000
      10.9305      193.000
      10.9452      208.000
      10.9599      221.000
      10.9746      209.000
      10.9892      225.000
      11.0039      215.000
      11.0186      172.000
      11.0333      205.000
      11.0480      203.000
      11.0627      212.000
      11.0774      219.000
      11.0921      196.000
      11.1067      201.000
      11.1214      190.000
      11.1361      219.000
      11.1508      207.000
      11.1655      201.000
      11.1802      194.000
      11.1949      245.000
      11.2096      222.000
      11.2243      241.000
      11.2389      227.000
      11.2536      215.000
      11.2683      261.000
      11.2830      260.000
      11.2977      256.000
      11.3124      219.000
      11.3271      214.000
      11.3418      245.000
      11.3565      272.000
      11.3711      237.000
      11.3858      260.000
      11.4005      284.000
      11.4152      261.000
      11.4299      254.000
      11.4446      273.000
      11.4593      283.000
      11.4740      282.000
      11.4887      266.000
      11.5033      268.000
      11.5180      285.000
      11.5327      269.000
      11.5474      309.000
      11.5621      283.000
      11.5768      298.000
      11.5915      316.000
      11.6062      321.000
      11.6209      308.000
      11.6355      316.000
      11.6502      337.000
      11.6649      305.000
      11.6796      346.000
      11.6943      347.000
      11.7090      337.000
      11.7237      358.000
      11.7384      393.000
      11.7531      360.000
      11.7677      329.000
      11.7824      356.000
      11.7971      398.000
      11.8118      367.000
      11.8265      412.000
      11.8412      417.000
      11.8559      386.000
      11.8706      404.000
      11.8853      353.000
      11.8999      421.000
      11.9146      438.000
      11.9293      375.000
      11.9440      376.000
      11.9587      451.000
      11.9734      408.000
      11.9881      443.000
      12.0028      383.000
      12.0175      396.000
      12.0321      419.000
      12.0468      453.000
      12.0615      426.000
      12.0762      450.000
      12.0909      413.000
      12.1056      419.000
      12.1203      461.000
      12.1350      437.000
      12.1497      455.000
      12.1643      483.000
      12.1790      446.000
      12.1937      547.000
      12.2084      488.000
      12.2231      503.000
      12.2378      480.000
      12.2525      511.000
      12.2672      490.000
      12.2818      498.000
      12.2965      475.000
      12.3112      522.000
      12.3259      541.000
      12.3406      530.000
      12.3553      525.000
      12.3700      546.000
      12.3847      606.000
      12.3994      533.000
      12.4140      534.000
      12.4287      566.000
      12.4434      558.000
      12.4581      539.000
      12.4728      546.000
      12.4875      577.000
      12.5022      633.000
      12.5169      584.000
      12.5316      575.000
      12.5462      652.000
      12.5609      658.000
      12.5756      683.000
      12.5903      744.000
      12.6050      679.000
      12.6197      687.000
      12.6344      734.000
      12.6491      791.000
      12.6638      765.000
      12.6784      744.000
      12.6931      771.000
      12.7078      763.000
      12.7225      731.000
      12.7372      792.000
      12.7519      784.000
      12.7666      782.000
      12.7813      741.000
      12.7960      731.000
      12.8106      668.000
      12.8253      662.000
      12.8400      641.000
      12.8547      645.000
      12.8694      536.000
      12.8841      548.000
      12.8988      533.000
      12.9135      493.000
      12.9282      464.000
      12.9428      485.000
      12.9575      435.000
      12.9722      449.000
      12.9869      432.000
      13.0016      346.000
      13.0163      396.000
      13.0310      413.000
      13.0457      360.000
      13.0604      358.000
      13.0750      362.000
      13.0897      368.000
      13.1044      360.000
      13.1191      404.000
      13.1338      372.000
      13.1485      355.000
      13.1632      335.000
      13.1779      360.000
      13.1926      380.000
      13.2072      386.000
      13.2219      424.000
      13.2366      381.000
      13.2513      428.000
      13.2660      404.000
      13.2807      403.000
      13.2954      428.000
      13.3101      387.000
      13.3248      413.000
      13.3394      415.000
      13.3541      429.000
      13.3688      456.000
      13.3835      397.000
      13.3982      438.000
      13.4129      430.000
      13.4276      440.000
      13.4423      420.000
      13.4569      447.000
      13.4716      387.000
      13.4863      398.000
      13.5010      409.000
      13.5157      406.000
      13.5304      373.000
      13.5451      386.000
      13.5598      382.000
      13.5745      374.000
      13.5891      342.000
      13.6038      361.000
      13.6185      318.000
      13.6332      331.000
      13.6479      334.000
      13.6626      322.000
      13.6773      312.000
      13.6920      298.000
      13.7067      353.000
      13.7213      338.000
      13.7360      307.000
      13.7507      314.000
      13.7654      308.000
      13.7801      323.000
      13.7948      303.000
      13.8095      317.000
      13.8242      325.000
      13.8389      308.000
      13.8535      279.000
      13.8682      331.000
      13.8829      336.000
      13.8976      300.000
      13.9123      332.000
      13.9270      333.000
      13.9417      302.000
      13.9564      303.000
      13.9711      299.000
      13.9857      278.000
      14.0004      380.000
      14.0151      327.000
      14.0298      328.000
      14.0445      335.000
      14.0592      350.000
      14.0739      323.000
      14.0886      366.000
      14.1033      344.000
      14.1179      320.000
      14.1326      337.000
      14.1473      348.000
      14.1620      344.000
      14.1767      346.000
      14.1914      334.000
      14.2061      366.000
      14.2208      354.000
      14.2355      360.000
      14.2501      332.000
      14.2648      363.000
      14.2795      354.000
      14.2942      340.000
      14.3089      373.000
      14.3236      359.000
      14.3383      359.000
      14.3530      368.000
      14.3677      388.000
      14.3823      361.000
      14.3970      345.000
      14.4117      376.000
      14.4264      348.000
      14.4411      395.000
      14.4558      401.000
      14.4705      380.000
      14.4852      381.000
      14.4999      426.000
      14.5145      417.000
      14.5292      422.000
      14.5439      435.000
      14.5586      408.000
      14.5733      446.000
      14.5880      468.000
      14.6027      422.000
      14.6174      471.000
      14.6320      468.000
      14.6467      483.000
      14.6614      452.000
      14.6761      472.000
      14.6908      503.000
      14.7055      522.000
      14.7202      485.000
      14.7349      545.000
      14.7496      550.000
      14.7642      581.000
      14.7789      567.000
      14.7936      598.000
      14.8083      596.000
      14.8230      665.000
      14.8377      593.000
      14.8524      637.000
      14.8671      578.000
      14.8818      655.000
      14.8964      644.000
      14.9111      625.000
      14.9258      617.000
      14.9405      593.000
      14.9552      600.000
      14.9699      596.000
      14.9846      547.000
      14.9993      522.000
      15.0140      511.000
      15.0286      483.000
      15.0433      435.000
      15.0580      440.000
      15.0727      388.000
      15.0874      372.000
      15.1021      340.000
      15.1168      301.000
      15.1315      295.000
      15.1462      253.000
      15.1608      221.000
      15.1755      216.000
      15.1902      210.000
      15.2049      210.000
      15.2196      200.000
      15.2343      188.000
      15.2490      183.000
      15.2637      176.000
      15.2784      188.000
      15.2930      180.000
      15.3077      187.000
      15.3224      156.000
      15.3371      152.000
      15.3518      137.000
      15.3665      185.000
      15.3812      160.000
      15.3959      162.000
      15.4106      174.000
      15.4252      178.000
      15.4399      193.000
      15.4546      190.000
      15.4693      193.000
      15.4840      192.000
      15.4987      221.000
      15.5134      225.000
      15.5281      217.000
      15.5428      229.000
      15.5574      227.000
      15.5721      252.000
      15.5868      253.000
      15.6015      233.000
      15.6162      212.000
      15.6309      234.000
      15.6456      226.000
      15.6603      228.000
      15.6750      241.000
      15.6896      233.000
      15.7043      234.000
      15.7190      228.000
      15.7337      224.000
      15.7484      241.000
      15.7631      235.000
      15.7778      203.000
      15.7925      238.000
      15.8071      212.000
      15.8218      215.000
      15.8365      212.000
      15.8512      216.000
      15.8659      195.000
      15.8806      204.000
      15.8953      220.000
      15.9100      207.000
      15.9247      180.000
      15.9393      186.000
      15.9540      171.000
      15.9687      146.000
      15.9834      155.000
      15.9981      131.000
      16.0128      158.000
      16.0275      147.000
      16.0422      123.000
      16.0569      142.000
      16.0715      124.000
      16.0862      113.000
      16.1009      109.000
      16.1156      103.000
      16.1303      87.0000
      16.1450      81.0000
      16.1597      96.0000
      16.1744      71.0000
      16.1891      89.0000
      16.2037      90.0000
      16.2184      94.0000
      16.2331      105.000
      16.2478      72.0000
      16.2625      110.000
      16.2772      114.000
      16.2919      89.0000
      16.3066      99.0000
      16.3213      98.0000
      16.3359      114.000
      16.3506      116.000
      16.3653      127.000
      16.3800      153.000
      16.3947      152.000
      16.4094      135.000
      16.4241      165.000
      16.4388      148.000
      16.4535      157.000
      16.4681      176.000
      16.4828      163.000
      16.4975      177.000
      16.5122      184.000
      16.5269      170.000
      16.5416      186.000
      16.5563      158.000
      16.5710      188.000
      16.5857      173.000
      16.6003      184.000
      16.6150      181.000
      16.6297      210.000
      16.6444      183.000
      16.6591      183.000
      16.6738      187.000
      16.6885      161.000
      16.7032      177.000
      16.7179      162.000
      16.7325      156.000
      16.7472      155.000
      16.7619      168.000
      16.7766      161.000
      16.7913      142.000
      16.8060      155.000
      16.8207      164.000
      16.8354      155.000
      16.8500      180.000
      16.8647      167.000
      16.8794      180.000
      16.8941      193.000
      16.9088      209.000
      16.9235      199.000
      16.9382      206.000
      16.9529      221.000
      16.9676      232.000
      16.9822      239.000
      16.9969      236.000
      17.0116      282.000
      17.0263      278.000
      17.0410      308.000
      17.0557      277.000
      17.0704      269.000
      17.0851      301.000
      17.0998      274.000
      17.1144      290.000
      17.1291      285.000
      17.1438      243.000
      17.1585      256.000
      17.1732      233.000
      17.1879      240.000
      17.2026      260.000
      17.2173      206.000
      17.2320      202.000
      17.2466      157.000
      17.2613      154.000
      17.2760      152.000
      17.2907      137.000
      17.3054      92.0000
      17.3201      114.000
      17.3348      96.0000
      17.3495      90.0000
      17.3642      73.0000
      17.3788      71.0000
      17.3935      51.0000
      17.4082      52.0000
      17.4229      44.0000
      17.4376      38.0000
      17.4523      37.0000
      17.4670      41.0000
      17.4817      21.0000
      17.4964      21.0000
      17.5110      27.0000
      17.5257      19.0000
      17.5404      19.0000
      17.5551      19.0000
      17.5698      21.0000
      17.5845      19.0000
      17.5992      19.0000
      17.6139      20.0000
      17.6286      23.0000
      17.6432      19.0000
      17.6579      17.0000
      17.6726      18.0000
      17.6873      14.0000
      17.7020      24.0000
      17.7167      20.0000
      17.7314      12.0000
      17.7461      8.00000
      17.7608      14.0000
      17.7754      15.0000
      17.7901      14.0000
      17.8048      11.0000
      17.8195      18.0000
      17.8342      12.0000
      17.8489      18.0000
      17.8636      18.0000
      17.8783      18.0000
      17.8930      13.0000
      17.9076      17.0000
      17.9223      19.0000
      17.9370      19.0000
      17.9517      18.0000
      17.9664      22.0000
      17.9811      15.0000
      17.9958      19.0000
      18.0105      19.0000
      18.0252      21.0000
      18.0398      26.0000
      18.0545      21.0000
      18.0692      23.0000
      18.0839      22.0000
      18.0986      25.0000
      18.1133      23.0000
      18.1280      27.0000
      18.1427      23.0000
      18.1573      24.0000
      18.1720      17.0000
      18.1867      13.0000
      18.2014      16.0000
      18.2161      16.0000
      18.2308      16.0000
      18.2455      20.0000
      18.2602      21.0000
      18.2749      17.0000
      18.2895      15.0000
      18.3042      15.0000
      18.3189      10.0000
      18.3336      10.0000
      18.3483      16.0000
      18.3630      21.0000
      18.3777      20.0000
      18.3924      14.0000
      18.4071      17.0000
      18.4217      19.0000
      18.4364      21.0000
      18.4511      21.0000
      18.4658      18.0000
      18.4805      20.0000
      18.4952      17.0000
      18.5099      20.0000
      18.5246      16.0000
      18.5393      17.0000
      18.5539      14.0000
      18.5686      13.0000
      18.5833      16.0000
      18.5980      20.0000
      18.6127      15.0000
      18.6274      20.0000
      18.6421      20.0000
      18.6568      15.0000
      18.6715      17.0000
      18.6861      9.00000
      18.7008      13.0000
      18.7155      12.0000
      18.7302      12.0000
      18.7449      11.0000
      18.7596      12.0000
      18.7743      15.0000
      18.7890      17.0000
      18.8037      9.00000
      18.8183      13.0000
      18.8330      8.00000
      18.8477      12.0000
      18.8624      20.0000
      18.8771      20.0000
      18.8918      18.0000
      18.9065      21.0000
      18.9212      26.0000
      18.9359      21.0000
      18.9505      17.0000
      18.9652      18.0000
      18.9799      17.0000
      18.9946      19.0000
      19.0093      15.0000
      19.0240      16.0000
      19.0387      16.0000
      19.0534      15.0000
      19.0681      23.0000
      19.0827      20.0000
      19.0974      20.0000
      19.1121      17.0000
      19.1268      21.0000
      19.1415      18.0000
      19.1562      22.0000
      19.1709      17.0000
      19.1856      23.0000
      19.2003      18.0000
      19.2149      19.0000
      19.2296      15.0000
      19.2443      21.0000
      19.2590      18.0000
      19.2737      14.0000
      19.2884      21.0000
      19.3031      23.0000
      19.3178      20.0000
      19.3324      21.0000
      19.3471      21.0000
      19.3618      14.0000
      19.3765      22.0000
      19.3912      25.0000
      19.4059      21.0000
      19.4206      25.0000
      19.4353      28.0000
      19.4500      28.0000
      19.4646      29.0000
      19.4793      25.0000
      19.4940      22.0000
      19.5087      24.0000
      19.5234      24.0000
      19.5381      26.0000
      19.5528      26.0000
      19.5675      30.0000
      19.5822      23.0000
      19.5968      23.0000
      19.6115      24.0000
      19.6262      30.0000
      19.6409      22.0000
      19.6556      26.0000
      19.6703      35.0000
      19.6850      30.0000
      19.6997      23.0000
      19.7144      23.0000
      19.7290      22.0000
      19.7437      23.0000
      19.7584      21.0000
      19.7731      23.0000
      19.7878      26.0000
      19.8025      25.0000
      19.8172      24.0000
      19.8319      21.0000
      19.8466      19.0000
      19.8612      18.0000
      19.8759      19.0000
      19.8906      22.0000
      19.9053      22.0000
      19.9200      23.0000
      19.9347      24.0000
      19.9494      22.0000
      19.9641      22.0000
      19.9788      17.0000
      19.9934      22.0000
      20.0081      20.0000
      20.0228      29.0000
      20.0375      27.0000
      20.0522      24.0000
      20.0669      27.0000
      20.0816      27.0000
      20.0963      27.0000
      20.1110      26.0000
      20.1256      30.0000
      20.1403      31.0000
      20.1550      25.0000
      20.1697      27.0000
      20.1844      29.0000
      20.1991      24.0000
      20.2138      27.0000
      20.2285      26.0000
      20.2432      84.0000
      20.2578      79.0000
      20.2725      79.0000
      20.2872      76.0000
      20.3019      79.0000
      20.3166      74.0000
      20.3313      82.0000
      20.3460      80.0000
      20.3607      79.0000
      20.3753      78.0000
      20.3900      77.0000
      20.4047      78.0000
      20.4194      240.000
      20.4341      242.000
      20.4488      240.000
      20.4635      241.000
      20.4782      243.000
      20.4929      240.000
      20.5075      241.000
      20.5222      238.000
      20.5369      240.000
      20.5516      245.000
      20.5663      243.000
      20.5810      241.000
      20.5957      1076.00
      20.6104      1074.00
      20.6251      1076.00
      20.6397      1083.00
      20.6544      1073.00
      20.6691      1076.00
      20.6838      1077.00
      20.6985      1077.00
      20.7132      1073.00
      20.7279      1074.00
      20.7426      1077.00
      20.7573      3285.00
      20.7719      3292.00
      20.7866      3287.00
      20.8013      3285.00
      20.8160      3289.00
      20.8307      3289.00
      20.8454      3289.00
      20.8601      3286.00
      20.8748      3289.00
      20.8895      3283.00
      20.9041      3284.00
      20.9188      3285.00
      20.9335      5712.00
      20.9482      5710.00
      20.9629      5708.00
      20.9776      5706.00
      20.9923      5711.00
      21.0070      5711.00
      21.0217      5706.00
      21.0363      5708.00
      21.0510      5709.00
      21.0657      5706.00
      21.0804      5706.00
      21.0951      5707.00
      21.1098      6685.00
      21.1245      6691.00
      21.1392      6687.00
      21.1539      6687.00
      21.1685      6686.00
      21.1832      6684.00
      21.1979      6692.00
      21.2126      6689.00
      21.2273      6685.00
      21.2420      6690.00
      21.2567      6685.00
      21.2714      6685.00
      21.2861      6233.00
      21.3007      6235.00
      21.3154      6236.00
      21.3301      6240.00
      21.3448      6235.00
      21.3595      6235.00
      21.3742      6241.00
      21.3889      6235.00
      21.4036      6234.00
      21.4183      6236.00
      21.4329      6235.00
      21.4476      5820.00
      21.4623      5826.00
      21.4770      5823.00
      21.4917      5819.00
      21.5064      5823.00
      21.5211      5823.00
      21.5358      5817.00
      21.5504      5818.00
      21.5651      5817.00
      21.5798      5823.00
      21.5945      5821.00
      21.6092      5821.00
      21.6239      5361.00
      21.6386      5362.00
      21.6533      5362.00
      21.6680      5357.00
      21.6826      5359.00
      21.6973      5362.00
      21.7120      5359.00
      21.7267      5355.00
      21.7414      5355.00
      21.7561      5361.00
      21.7708      5357.00
      21.7855      5359.00
      21.8002      5024.00
      21.8148      5026.00
      21.8295      5021.00
      21.8442      5024.00
      21.8589      5023.00
      21.8736      5025.00
      21.8883      5029.00
      21.9030      5026.00
      21.9177      5025.00
      21.9324      5021.00
      21.9470      5026.00
      21.9617      5028.00
      21.9764      4568.00
      21.9911      4570.00
      22.0058      4571.00
      22.0205      4575.00
      22.0352      4569.00
      22.0499      4575.00
      22.0646      4572.00
      22.0792      4567.00
      22.0939      4567.00
      22.1086      4569.00
      22.1233      4571.00
      22.1380      4573.00
      22.1527      4251.00
      22.1674      4250.00
      22.1821      4249.00
      22.1968      4249.00
      22.2114      4256.00
      22.2261      4256.00
      22.2408      4246.00
      22.2555      4245.00
      22.2702      4246.00
      22.2849      4249.00
      22.2996      4252.00
      22.3143      3840.00
      22.3290      3836.00
      22.3436      3841.00
      22.3583      3839.00
      22.3730      3839.00
      22.3877      3840.00
      22.4024      3839.00
      22.4171      3837.00
      22.4318      3841.00
      22.4465      3838.00
      22.4612      3840.00
      22.4758      3836.00
      22.4905      3451.00
      22.5052      3458.00
      22.5199      3454.00
      22.5346      3454.00
      22.5493      3455.00
      22.5640      3454.00
      22.5787      3454.00
      22.5934      3454.00
      22.6080      3454.00
      22.6227      3452.00
      22.6374      3457.00
      22.6521      3457.00
      22.6668      3295.00
      22.6815      3293.00
      22.6962      3297.00
      22.7109      3293.00
      22.7255      3297.00
      22.7402      3299.00
      22.7549      3294.00
      22.7696      3297.00
      22.7843      3298.00
      22.7990      3293.00
      22.8137      3297.00
      22.8284      3297.00
      22.8431      2945.00
      22.8577      2946.00
      22.8724      2944.00
      22.8871      2944.00
      22.9018      2945.00
      22.9165      2948.00
      22.9312      2949.00
      22.9459      2946.00
      22.9606      2946.00
      22.9753      2948.00
      22.9899      2947.00
      23.0046      2839.00
      23.0193      2836.00
      23.0340      2838.00
      23.0487      2841.00
      23.0634      2837.00
      23.0781      2838.00
      23.0928      2838.00
      23.1075      2838.00
      23.1221      2835.00
      23.1368      2840.00
      23.1515      2837.00
      23.1662      2834.00
      23.1809      2461.00
      23.1956      2460.00
      23.2103      2453.00
      23.2250      2457.00
      23.2397      2456.00
      23.2543      2457.00
      23.2690      2459.00
      23.2837      2455.00
      23.2984      2457.00
      23.3131      2462.00
      23.3278      2461.00
      23.3425      2457.00
      23.3572      2372.00
      23.3719      2373.00
      23.3865      2368.00
      23.4012      2372.00
      23.4159      2378.00
      23.4306      2365.00
      23.4453      2366.00
      23.4600      2367.00
      23.4747      2362.00
      23.4894      2370.00
      23.5041      2367.00
      23.5187      2369.00
      23.5334      2180.00
      23.5481      2178.00
      23.5628      2175.00
      23.5775      2175.00
      23.5922      2175.00
      23.6069      2180.00
      23.6216      2181.00
      23.6363      2173.00
      23.6509      2174.00
      23.6656      2176.00
      23.6803      2170.00
      23.6950      1895.00
      23.7097      1896.00
      23.7244      1895.00
      23.7391      1891.00
      23.7538      1900.00
      23.7685      1894.00
      23.7831      1898.00
      23.7978      1895.00
      23.8125      1899.00
      23.8272      1898.00
      23.8419      1894.00
      23.8566      1896.00
      23.8713      1770.00
      23.8860      1770.00
      23.9007      1763.00
      23.9153      1769.00
      23.9300      1768.00
      23.9447      1773.00
      23.9594      1769.00
      23.9741      1770.00
      23.9888      1772.00
      24.0035      1764.00
      24.0182      1771.00
      24.0328      1771.00
      24.0475      1742.00
      24.0622      1738.00
      24.0769      1745.00
      24.0916      1744.00
      24.1063      1743.00
      24.1210      1749.00
      24.1357      1746.00
      24.1504      1743.00
      24.1650      1745.00
      24.1797      1739.00
      24.1944      1740.00
      24.2091      1747.00
      24.2238      1558.00
      24.2385      1551.00
      24.2532      1556.00
      24.2679      1551.00
      24.2826      1554.00
      24.2972      1563.00
      24.3119      1556.00
      24.3266      1549.00
      24.3413      1558.00
      24.3560      1558.00
      24.3707      1552.00
      24.3854      1556.00
      24.4001      1398.00
      24.4148      1400.00
      24.4294      1404.00
      24.4441      1402.00
      24.4588      1401.00
      24.4735      1398.00
      24.4882      1399.00
      24.5029      1404.00
      24.5176      1395.00
      24.5323      1402.00
      24.5470      1394.00
      24.5616      1338.00
      24.5763      1334.00
      24.5910      1334.00
      24.6057      1338.00
      24.6204      1339.00
      24.6351      1331.00
      24.6498      1337.00
      24.6645      1336.00
      24.6792      1330.00
      24.6938      1331.00
      24.7085      1336.00
      24.7232      1344.00
      24.7379      1239.00
      24.7526      1237.00
      24.7673      1230.00
      24.7820      1229.00
      24.7967      1233.00
      24.8114      1236.00
      24.8260      1237.00
      24.8407      1240.00
      24.8554      1232.00
      24.8701      1231.00
      24.8848      1233.00
      24.8995      1233.00
      24.9142      1114.00
      24.9289      1111.00
      24.9436      1119.00
      24.9582      1112.00
      24.9729      1113.00
      24.9876      1122.00
      25.0023      1123.00
      25.0170      1117.00
      25.0317      1121.00
      25.0464      1126.00
      25.0611      1116.00
      25.0758      1118.00
      25.0904      1053.00
      25.1051      1054.00
      25.1198      1060.00
      25.1345      1051.00
      25.1492      1057.00
      25.1639      1058.00
      25.1786      1054.00
      25.1933      1058.00
      25.2079      1055.00
      25.2226      1061.00
      25.2373      1057.00
      25.2520      988.000
      25.2667      987.000
      25.2814      980.000
      25.2961      982.000
      25.3108      986.000
      25.3255      996.000
      25.3401      995.000
      25.3548      1000.00
      25.3695      1004.00
      25.3842      1009.00
      25.3989      1015.00
      25.4136      1044.00
      25.4283      1016.00
      25.4430      1019.00
      25.4577      1023.00
      25.4723      1044.00
      25.4870      1045.00
      25.5017      1082.00
      25.5164      1102.00
      25.5311      1150.00
      25.5458      1147.00
      25.5605      1194.00
      25.5752      1217.00
      25.5899      1221.00
      25.6045      1158.00
      25.6192      1195.00
      25.6339      1227.00
      25.6486      1264.00
      25.6633      1332.00
      25.6780      1291.00
      25.6927      1314.00
      25.7074      1376.00
      25.7221      1387.00
      25.7367      1402.00
      25.7514      1422.00
      25.7661      1445.00
      25.7808      1365.00
      25.7955      1351.00
      25.8102      1394.00
      25.8249      1350.00
      25.8396      1338.00
      25.8543      1384.00
      25.8689      1353.00
      25.8836      1315.00
      25.8983      1258.00
      25.9130      1281.00
      25.9277      1188.00
      25.9424      1135.00
      25.9571      1104.00
      25.9718      1057.00
      25.9865      1062.00
      26.0011      995.000
      26.0158      967.000
      26.0305      939.000
      26.0452      912.000
      26.0599      903.000
      26.0746      878.000
      26.0893      881.000
      26.1040      844.000
      26.1187      758.000
      26.1333      759.000
      26.1480      758.000
      26.1627      742.000
      26.1774      739.000
      26.1921      739.000
      26.2068      727.000
      26.2215      732.000
      26.2362      720.000
      26.2508      716.000
      26.2655      715.000
      26.2802      719.000
      26.2949      614.000
      26.3096      609.000
      26.3243      609.000
      26.3390      606.000
      26.3537      612.000
      26.3684      605.000
      26.3830      606.000
      26.3977      605.000
      26.4124      601.000
      26.4271      597.000
      26.4418      592.000
      26.4565      599.000
      26.4712      653.000
      26.4859      652.000
      26.5006      657.000
      26.5152      647.000
      26.5299      652.000
      26.5446      648.000
      26.5593      650.000
      26.5740      661.000
      26.5887      663.000
      26.6034      649.000
      26.6181      651.000
      26.6328      647.000
      26.6474      544.000
      26.6621      545.000
      26.6768      546.000
      26.6915      547.000
      26.7062      547.000
      26.7209      545.000
      26.7356      545.000
      26.7503      544.000
      26.7650      545.000
      26.7796      545.000
      26.7943      543.000
      26.8090      527.000
      26.8237      525.000
      26.8384      521.000
      26.8531      520.000
      26.8678      523.000
      26.8825      523.000
      26.8972      524.000
      26.9118      521.000
      26.9265      527.000
      26.9412      522.000
      26.9559      524.000
      26.9706      524.000
      26.9853      511.000
      27.0000      513.000
      27.0147      512.000
      27.0294      515.000
      27.0440      511.000
      27.0587      511.000
      27.0734      511.000
      27.0881      511.000
      27.1028      512.000
      27.1175      512.000
      27.1322      513.000
      27.1469      511.000
      27.1616      447.000
      27.1762      448.000
      27.1909      448.000
      27.2056      447.000
      27.2203      447.000
      27.2350      448.000
      27.2497      448.000
      27.2644      447.000
      27.2791      447.000
      27.2938      450.000
      27.3084      448.000
      27.3231      448.000
      27.3378      503.000
      27.3525      504.000
      27.3672      503.000
      27.3819      501.000
      27.3966      503.000
      27.4113      504.000
      27.4259      500.000
      27.4406      500.000
      27.4553      503.000
      27.4700      502.000
      27.4847      502.000
      27.4994      448.000
      27.5141      447.000
      27.5288      448.000
      27.5435      450.000
      27.5581      448.000
      27.5728      449.000
      27.5875      448.000
      27.6022      447.000
      27.6169      446.000
      27.6316      446.000
      27.6463      448.000
      27.6610      447.000
      27.6757      414.000
      27.6903      413.000
      27.7050      412.000
      27.7197      415.000
      27.7344      415.000
      27.7491      413.000
      27.7638      415.000
      27.7785      412.000
      27.7932      414.000
      27.8079      415.000
      27.8225      414.000
      27.8372      413.000
      27.8519      382.000
      27.8666      381.000
      27.8813      381.000
      27.8960      382.000
      27.9107      384.000
      27.9254      382.000
      27.9401      383.000
      27.9547      382.000
      27.9694      381.000
      27.9841      381.000
      27.9988      381.000
      28.0135      382.000
      28.0282      355.000
      28.0429      355.000
      28.0576      354.000
      28.0723      355.000
      28.0869      356.000
      28.1016      355.000
      28.1163      354.000
      28.1310      357.000
      28.1457      356.000
      28.1604      354.000
      28.1751      354.000
      28.1898      386.000
      28.2045      384.000
      28.2191      384.000
      28.2338      385.000
      28.2485      385.000
      28.2632      385.000
      28.2779      385.000
      28.2926      385.000
      28.3073      383.000
      28.3220      387.000
      28.3367      385.000
      28.3513      384.000
      28.3660      327.000
      28.3807      328.000
      28.3954      327.000
      28.4101      327.000
      28.4248      327.000
      28.4395      328.000
      28.4542      328.000
      28.4689      328.000
      28.4835      328.000
      28.4982      328.000
      28.5129      328.000
      28.5276      333.000
      28.5423      326.000
      28.5570      325.000
      28.5717      323.000
      28.5864      323.000
      28.6010      325.000
      28.6157      328.000
      28.6304      327.000
      28.6451      325.000
      28.6598      326.000
      28.6745      326.000
      28.6892      326.000
      28.7039      324.000
      28.7186      331.000
      28.7332      331.000
      28.7479      333.000
      28.7626      331.000
      28.7773      331.000
      28.7920      331.000
      28.8067      333.000
      28.8214      333.000
      28.8361      333.000
      28.8508      331.000
      28.8654      335.000
      28.8801      335.000
      28.8948      337.000
      28.9095      338.000
      28.9242      339.000
      28.9389      336.000
      28.9536      337.000
      28.9683      339.000
      28.9830      338.000
      28.9976      336.000
      29.0123      338.000
      29.0270      339.000
      29.0417      337.000
      29.0564      328.000
      29.0711      327.000
      29.0858      330.000
      29.1005      329.000
      29.1152      330.000
      29.1298      330.000
      29.1445      329.000
      29.1592      328.000
      29.1739      330.000
      29.1886      329.000
      29.2033      332.000
      29.2180      329.000
      29.2327      314.000
      29.2474      311.000
      29.2620      312.000
      29.2767      312.000
      29.2914      311.000
      29.3061      313.000
      29.3208      310.000
      29.3355      311.000
      29.3502      312.000
      29.3649      311.000
      29.3796      311.000
      29.3942      310.000
      29.4089      331.000
      29.4236      329.000
      29.4383      328.000
      29.4530      330.000
      29.4677      330.000
      29.4824      328.000
      29.4971      331.000
      29.5118      329.000
      29.5264      330.000
      29.5411      332.000
      29.5558      328.000
      29.5705      330.000
      29.5852      297.000
      29.5999      294.000
      29.6146      297.000
      29.6293      297.000
      29.6440      294.000
      29.6586      294.000
      29.6733      294.000
      29.6880      295.000
      29.7027      295.000
      29.7174      295.000
      29.7321      294.000
      29.7468      316.000
      29.7615      316.000
      29.7761      316.000
      29.7908      315.000
      29.8055      313.000
      29.8202      319.000
      29.8349      316.000
      29.8496      315.000
      29.8643      316.000
      29.8790      315.000
      29.8937      313.000
      29.9083      316.000
      29.9230      317.000
      29.9377      315.000
      29.9524      317.000
      29.9671      317.000
      29.9818      317.000
      29.9965      315.000
      30.0112      315.000
      30.0259      316.000
      30.0405      318.000
      30.0552      316.000
      30.0699      316.000
      30.0846      315.000
      30.0993      334.000
